 Incident particle is a   Muon with M =   105.65839 MeV
 Index =  310:  seaborgium
     Absorber with Z = 106,  A = [266.], density = ??          
 Sternheimer coef:  a     k=m_s   x_0    x_1    I[eV]   Cbar  delta0 
                 0.2717  3.0000  0.6247  3.0000 1074.0  6.5174 0.00
 ( Restricted energy loss for Tcut =16.64 MeV
 Table written with (1X, 1P9E10.3,0PF8.4,1pE10.3)          post-Born included in pair prod
 *** Results below 10 MeV are not dependable ***
      T         p     Ionization  brems     pair     photonuc  Radloss    dE/dx   CSDA Range dltterm dE/dx|_R
    [MeV]    [MeV/c]  -----------------------[MeV cm^2/g]------------------------  [g/cm^2]  --[MeV cm^2/g]--
  1.000E+00 1.457E+01 1.875E+00 0.000E+00 0.000E+00 3.782E-05 3.782E-05 3.753E+00 5.829E-03  0.0000 1.740E+01
  1.200E+00 1.597E+01 1.522E+01 0.000E+00 0.000E+00 3.789E-05 3.789E-05 1.522E+01 1.813E-02  0.0000 1.522E+01
  1.400E+00 1.726E+01 1.348E+01 0.000E+00 0.000E+00 3.796E-05 3.796E-05 1.348E+01 3.212E-02  0.0000 1.347E+01
  1.700E+00 1.903E+01 1.161E+01 0.000E+00 0.000E+00 3.807E-05 3.807E-05 1.161E+01 5.621E-02  0.0000 1.161E+01
  2.000E+00 2.066E+01 1.032E+01 0.000E+00 0.000E+00 3.818E-05 3.818E-05 1.032E+01 8.369E-02  0.0000 1.032E+01
  2.500E+00 2.312E+01 8.855E+00 0.000E+00 0.000E+00 3.835E-05 3.835E-05 8.855E+00 1.362E-01  0.0000 8.855E+00
  3.000E+00 2.536E+01 7.853E+00 0.000E+00 0.000E+00 3.853E-05 3.853E-05 7.853E+00 1.964E-01  0.0000 7.853E+00
  3.500E+00 2.742E+01 7.107E+00 0.000E+00 0.000E+00 3.871E-05 3.871E-05 7.107E+00 2.634E-01  0.0000 7.106E+00
  4.000E+00 2.935E+01 6.520E+00 0.000E+00 0.000E+00 3.888E-05 3.888E-05 6.520E+00 3.370E-01  0.0000 6.520E+00
  4.500E+00 3.116E+01 6.043E+00 0.000E+00 0.000E+00 3.906E-05 3.906E-05 6.043E+00 4.167E-01  0.0000 6.043E+00
  5.000E+00 3.289E+01 5.645E+00 0.000E+00 0.000E+00 3.924E-05 3.924E-05 5.645E+00 5.024E-01  0.0000 5.645E+00
  5.500E+00 3.453E+01 5.306E+00 0.000E+00 0.000E+00 3.942E-05 3.942E-05 5.306E+00 5.938E-01  0.0000 5.306E+00
  6.000E+00 3.611E+01 5.014E+00 0.000E+00 0.000E+00 3.959E-05 3.959E-05 5.014E+00 6.908E-01  0.0000 5.014E+00
  7.000E+00 3.909E+01 4.535E+00 0.000E+00 0.000E+00 3.995E-05 3.995E-05 4.535E+00 9.008E-01  0.0000 4.535E+00
  8.000E+00 4.189E+01 4.156E+00 0.000E+00 0.000E+00 4.030E-05 4.030E-05 4.156E+00 1.131E+00  0.0000 4.156E+00
  9.000E+00 4.453E+01 3.848E+00 0.000E+00 0.000E+00 4.066E-05 4.066E-05 3.848E+00 1.382E+00  0.0000 3.848E+00
  1.000E+01 4.704E+01 3.593E+00 0.000E+00 0.000E+00 4.101E-05 4.101E-05 3.593E+00 1.651E+00  0.0000 3.593E+00
  1.200E+01 5.177E+01 3.194E+00 0.000E+00 0.000E+00 4.172E-05 4.172E-05 3.194E+00 2.243E+00  0.0000 3.194E+00
  1.400E+01 5.616E+01 2.895E+00 0.000E+00 0.000E+00 4.243E-05 4.243E-05 2.895E+00 2.902E+00  0.0000 2.895E+00
  1.700E+01 6.230E+01 2.565E+00 0.000E+00 0.000E+00 4.349E-05 4.349E-05 2.565E+00 4.006E+00  0.0000 2.565E+00
  2.000E+01 6.802E+01 2.325E+00 0.000E+00 0.000E+00 4.456E-05 4.456E-05 2.325E+00 5.236E+00  0.0000 2.325E+00
  2.500E+01 7.686E+01 2.044E+00 0.000E+00 0.000E+00 4.633E-05 4.633E-05 2.044E+00 7.538E+00  0.0000 2.044E+00
  3.000E+01 8.509E+01 1.852E+00 0.000E+00 0.000E+00 4.810E-05 4.810E-05 1.852E+00 1.011E+01  0.0000 1.852E+00
  3.500E+01 9.285E+01 1.712E+00 0.000E+00 0.000E+00 4.988E-05 4.988E-05 1.712E+00 1.293E+01  0.0000 1.712E+00
  4.000E+01 1.003E+02 1.606E+00 0.000E+00 0.000E+00 5.165E-05 5.165E-05 1.606E+00 1.595E+01  0.0000 1.606E+00
  4.500E+01 1.074E+02 1.524E+00 0.000E+00 0.000E+00 5.342E-05 5.342E-05 1.524E+00 1.914E+01  0.0000 1.524E+00
  5.000E+01 1.143E+02 1.459E+00 0.000E+00 0.000E+00 5.520E-05 5.520E-05 1.459E+00 2.250E+01  0.0000 1.459E+00
  5.500E+01 1.210E+02 1.406E+00 0.000E+00 0.000E+00 5.697E-05 5.697E-05 1.406E+00 2.599E+01  0.0000 1.406E+00
  6.000E+01 1.276E+02 1.362E+00 0.000E+00 0.000E+00 5.874E-05 5.874E-05 1.362E+00 2.961E+01  0.0000 1.362E+00
  7.000E+01 1.403E+02 1.295E+00 0.000E+00 0.000E+00 6.229E-05 6.229E-05 1.295E+00 3.715E+01  0.0000 1.295E+00
  8.000E+01 1.527E+02 1.246E+00 0.000E+00 0.000E+00 6.583E-05 6.583E-05 1.247E+00 4.503E+01  0.0000 1.246E+00
  9.000E+01 1.647E+02 1.211E+00 2.867E-06 0.000E+00 6.938E-05 7.225E-05 1.211E+00 5.317E+01  0.0000 1.211E+00
  1.000E+02 1.764E+02 1.184E+00 1.394E-05 0.000E+00 7.293E-05 8.687E-05 1.184E+00 6.153E+01  0.0000 1.184E+00
  1.200E+02 1.994E+02 1.148E+00 3.763E-05 0.000E+00 8.002E-05 1.176E-04 1.148E+00 7.870E+01  0.0000 1.148E+00
  1.400E+02 2.218E+02 1.127E+00 6.321E-05 0.000E+00 8.711E-05 1.503E-04 1.127E+00 9.630E+01  0.0000 1.127E+00
  1.700E+02 2.546E+02 1.111E+00 1.048E-04 0.000E+00 9.775E-05 2.025E-04 1.111E+00 1.231E+02  0.0000 1.111E+00
  2.000E+02 2.868E+02 1.106E+00 1.499E-04 0.000E+00 1.084E-04 2.583E-04 1.106E+00 1.502E+02  0.0000 1.105E+00
  2.099E+02 2.974E+02 1.106E+00 2.318E-04 0.000E+00 1.261E-04 3.580E-04 1.110E+00  Minimum ionization
  2.500E+02 3.396E+02 1.109E+00 2.318E-04 0.000E+00 1.261E-04 3.580E-04 1.110E+00 1.954E+02  0.0000 1.109E+00
  3.000E+02 3.917E+02 1.120E+00 3.213E-04 0.000E+00 1.438E-04 4.652E-04 1.120E+00 2.402E+02  0.0000 1.119E+00
  3.500E+02 4.432E+02 1.133E+00 4.174E-04 0.000E+00 1.616E-04 5.790E-04 1.134E+00 2.846E+02  0.0000 1.132E+00
  4.000E+02 4.945E+02 1.148E+00 5.193E-04 0.000E+00 1.793E-04 6.986E-04 1.148E+00 3.284E+02 -0.0003 1.144E+00
  4.500E+02 5.455E+02 1.162E+00 6.266E-04 0.000E+00 1.970E-04 8.236E-04 1.163E+00 3.717E+02 -0.0010 1.155E+00
  5.000E+02 5.964E+02 1.176E+00 7.386E-04 0.000E+00 2.148E-04 9.533E-04 1.177E+00 4.144E+02 -0.0020 1.164E+00
  5.500E+02 6.471E+02 1.189E+00 8.550E-04 0.000E+00 2.325E-04 1.088E-03 1.190E+00 4.567E+02 -0.0032 1.172E+00
  6.000E+02 6.977E+02 1.202E+00 9.755E-04 0.000E+00 2.502E-04 1.226E-03 1.203E+00 4.984E+02 -0.0046 1.179E+00
  7.000E+02 7.987E+02 1.225E+00 1.228E-03 0.000E+00 2.857E-04 1.513E-03 1.227E+00 5.807E+02 -0.0076 1.192E+00
  8.000E+02 8.995E+02 1.246E+00 1.493E-03 0.000E+00 3.211E-04 1.814E-03 1.248E+00 6.616E+02 -0.0109 1.203E+00
  9.000E+02 1.000E+03 1.265E+00 1.770E-03 0.000E+00 3.566E-04 2.127E-03 1.267E+00 7.411E+02 -0.0142 1.212E+00
  1.000E+03 1.101E+03 1.283E+00 2.058E-03 0.000E+00 3.921E-04 2.450E-03 1.285E+00 8.194E+02 -0.0176 1.220E+00
  1.200E+03 1.301E+03 1.313E+00 2.662E-03 0.000E+00 4.630E-04 3.125E-03 1.316E+00 9.732E+02 -0.0244 1.233E+00
  1.400E+03 1.502E+03 1.339E+00 3.298E-03 0.000E+00 5.339E-04 3.832E-03 1.343E+00 1.124E+03 -0.0310 1.244E+00
  1.700E+03 1.803E+03 1.371E+00 4.305E-03 0.000E+00 6.403E-04 4.945E-03 1.376E+00 1.344E+03 -0.0404 1.256E+00
  2.000E+03 2.103E+03 1.398E+00 5.365E-03 4.418E-04 7.495E-04 6.557E-03 1.405E+00 1.560E+03 -0.0492 1.266E+00
  2.500E+03 2.604E+03 1.434E+00 7.231E-03 1.732E-03 9.419E-04 9.905E-03 1.444E+00 1.911E+03 -0.0626 1.279E+00
  3.000E+03 3.104E+03 1.463E+00 9.200E-03 3.228E-03 1.137E-03 1.357E-02 1.477E+00 2.253E+03 -0.0747 1.288E+00
  3.500E+03 3.604E+03 1.487E+00 1.126E-02 4.897E-03 1.334E-03 1.749E-02 1.505E+00 2.588E+03 -0.0857 1.295E+00
  4.000E+03 4.104E+03 1.507E+00 1.338E-02 6.714E-03 1.533E-03 2.163E-02 1.529E+00 2.918E+03 -0.0958 1.301E+00
  4.500E+03 4.604E+03 1.525E+00 1.558E-02 8.662E-03 1.733E-03 2.597E-02 1.551E+00 3.243E+03 -0.1051 1.306E+00
  5.000E+03 5.105E+03 1.540E+00 1.784E-02 1.073E-02 1.931E-03 3.050E-02 1.571E+00 3.563E+03 -0.1137 1.310E+00
  5.500E+03 5.605E+03 1.554E+00 2.019E-02 1.294E-02 2.115E-03 3.524E-02 1.589E+00 3.880E+03 -0.1217 1.313E+00
  6.000E+03 6.105E+03 1.566E+00 2.259E-02 1.524E-02 2.298E-03 4.013E-02 1.606E+00 4.193E+03 -0.1292 1.316E+00
  7.000E+03 7.105E+03 1.587E+00 2.754E-02 2.011E-02 2.664E-03 5.031E-02 1.637E+00 4.809E+03 -0.1430 1.321E+00
  8.000E+03 8.105E+03 1.605E+00 3.264E-02 2.529E-02 3.027E-03 6.096E-02 1.666E+00 5.415E+03 -0.1554 1.324E+00
  9.000E+03 9.105E+03 1.620E+00 3.789E-02 3.074E-02 3.390E-03 7.202E-02 1.692E+00 6.010E+03 -0.1666 1.327E+00
  1.000E+04 1.011E+04 1.633E+00 4.327E-02 3.641E-02 3.750E-03 8.343E-02 1.717E+00 6.597E+03 -0.1769 1.330E+00
  1.200E+04 1.211E+04 1.656E+00 5.442E-02 4.797E-02 4.451E-03 1.068E-01 1.763E+00 7.746E+03 -0.1953 1.334E+00
  1.400E+04 1.411E+04 1.674E+00 6.596E-02 6.019E-02 5.146E-03 1.313E-01 1.805E+00 8.868E+03 -0.2112 1.336E+00
  1.700E+04 1.711E+04 1.696E+00 8.389E-02 7.955E-02 6.178E-03 1.696E-01 1.866E+00 1.050E+04 -0.2319 1.339E+00
  2.000E+04 2.011E+04 1.714E+00 1.024E-01 1.000E-01 7.200E-03 2.096E-01 1.923E+00 1.209E+04 -0.2497 1.341E+00
  2.500E+04 2.511E+04 1.737E+00 1.344E-01 1.379E-01 8.902E-03 2.812E-01 2.018E+00 1.462E+04 -0.2747 1.343E+00
  3.000E+04 3.011E+04 1.755E+00 1.676E-01 1.780E-01 1.059E-02 3.562E-01 2.112E+00 1.704E+04 -0.2956 1.345E+00
  3.500E+04 3.511E+04 1.770E+00 2.017E-01 2.202E-01 1.226E-02 4.341E-01 2.204E+00 1.936E+04 -0.3135 1.346E+00
  4.000E+04 4.011E+04 1.783E+00 2.367E-01 2.640E-01 1.392E-02 5.146E-01 2.297E+00 2.158E+04 -0.3292 1.346E+00
  4.500E+04 4.511E+04 1.794E+00 2.724E-01 3.092E-01 1.557E-02 5.972E-01 2.391E+00 2.372E+04 -0.3432 1.347E+00
  5.000E+04 5.011E+04 1.803E+00 3.087E-01 3.557E-01 1.722E-02 6.817E-01 2.485E+00 2.577E+04 -0.3558 1.347E+00
  5.500E+04 5.511E+04 1.812E+00 3.453E-01 4.018E-01 1.888E-02 7.660E-01 2.578E+00 2.774E+04 -0.3673 1.347E+00
  6.000E+04 6.011E+04 1.819E+00 3.823E-01 4.488E-01 2.054E-02 8.517E-01 2.671E+00 2.965E+04 -0.3777 1.347E+00
  7.000E+04 7.011E+04 1.833E+00 4.577E-01 5.453E-01 2.386E-02 1.027E+00 2.860E+00 3.327E+04 -0.3964 1.347E+00
  8.000E+04 8.011E+04 1.844E+00 5.347E-01 6.446E-01 2.715E-02 1.206E+00 3.051E+00 3.665E+04 -0.4127 1.347E+00
  9.000E+04 9.011E+04 1.854E+00 6.130E-01 7.465E-01 3.044E-02 1.390E+00 3.244E+00 3.983E+04 -0.4271 1.347E+00
  1.000E+05 1.001E+05 1.863E+00 6.926E-01 8.506E-01 3.372E-02 1.577E+00 3.440E+00 4.282E+04 -0.4399 1.348E+00
  1.160E+05 1.161E+05 1.875E+00 8.207E-01 1.018E+00 3.904E-02 1.877E+00 3.753E+00  Muon critical energy       
  1.200E+05 1.201E+05 1.878E+00 8.527E-01 1.059E+00 4.035E-02 1.953E+00 3.831E+00 4.833E+04 -0.4622 1.348E+00
  1.400E+05 1.401E+05 1.891E+00 1.016E+00 1.274E+00 4.696E-02 2.337E+00 4.228E+00 5.330E+04 -0.4811 1.348E+00
  1.700E+05 1.701E+05 1.907E+00 1.266E+00 1.606E+00 5.686E-02 2.929E+00 4.836E+00 5.993E+04 -0.5048 1.348E+00
  2.000E+05 2.001E+05 1.920E+00 1.522E+00 1.947E+00 6.674E-02 3.536E+00 5.456E+00 6.577E+04 -0.5247 1.348E+00
  2.500E+05 2.501E+05 1.938E+00 1.949E+00 2.502E+00 8.342E-02 4.534E+00 6.473E+00 7.417E+04 -0.5520 1.348E+00
  3.000E+05 3.001E+05 1.953E+00 2.385E+00 3.069E+00 1.001E-01 5.554E+00 7.507E+00 8.134E+04 -0.5743 1.348E+00
  3.500E+05 3.501E+05 1.966E+00 2.827E+00 3.646E+00 1.168E-01 6.590E+00 8.556E+00 8.758E+04 -0.5931 1.348E+00
  4.000E+05 4.001E+05 1.977E+00 3.276E+00 4.232E+00 1.335E-01 7.641E+00 9.618E+00 9.309E+04 -0.6095 1.348E+00
  4.500E+05 4.501E+05 1.986E+00 3.729E+00 4.826E+00 1.502E-01 8.706E+00 1.069E+01 9.802E+04 -0.6239 1.348E+00
  5.000E+05 5.001E+05 1.995E+00 4.188E+00 5.427E+00 1.669E-01 9.781E+00 1.178E+01 1.025E+05 -0.6368 1.348E+00
  5.500E+05 5.501E+05 2.003E+00 4.641E+00 6.014E+00 1.840E-01 1.084E+01 1.284E+01 1.065E+05 -0.6484 1.348E+00
  6.000E+05 6.001E+05 2.010E+00 5.098E+00 6.605E+00 2.011E-01 1.190E+01 1.391E+01 1.103E+05 -0.6591 1.348E+00
  7.000E+05 7.001E+05 2.023E+00 6.019E+00 7.797E+00 2.354E-01 1.405E+01 1.607E+01 1.170E+05 -0.6779 1.348E+00
  8.000E+05 8.001E+05 2.034E+00 6.949E+00 9.002E+00 2.698E-01 1.622E+01 1.825E+01 1.228E+05 -0.6943 1.348E+00
  9.000E+05 9.001E+05 2.043E+00 7.888E+00 1.022E+01 3.043E-01 1.841E+01 2.045E+01 1.280E+05 -0.7087 1.348E+00
  1.000E+06 1.000E+06 2.052E+00 8.833E+00 1.144E+01 3.389E-01 2.062E+01 2.267E+01 1.326E+05 -0.7216 1.348E+00
  1.200E+06 1.200E+06 2.068E+00 1.071E+01 1.386E+01 4.092E-01 2.499E+01 2.705E+01 1.407E+05 -0.7439 1.348E+00
  1.400E+06 1.400E+06 2.080E+00 1.261E+01 1.631E+01 4.799E-01 2.939E+01 3.147E+01 1.475E+05 -0.7627 1.348E+00
  1.700E+06 1.700E+06 2.097E+00 1.548E+01 2.000E+01 5.866E-01 3.607E+01 3.816E+01 1.562E+05 -0.7865 1.348E+00
  2.000E+06 2.000E+06 2.111E+00 1.837E+01 2.373E+01 6.938E-01 4.280E+01 4.491E+01 1.634E+05 -0.8064 1.348E+00
  2.500E+06 2.500E+06 2.130E+00 2.317E+01 2.988E+01 8.762E-01 5.392E+01 5.605E+01 1.734E+05 -0.8337 1.348E+00
  3.000E+06 3.000E+06 2.146E+00 2.799E+01 3.607E+01 1.060E+00 6.512E+01 6.726E+01 1.815E+05 -0.8560 1.348E+00
  3.500E+06 3.500E+06 2.159E+00 3.285E+01 4.228E+01 1.246E+00 7.638E+01 7.854E+01 1.884E+05 -0.8749 1.348E+00
  4.000E+06 4.000E+06 2.171E+00 3.773E+01 4.853E+01 1.432E+00 8.770E+01 8.987E+01 1.943E+05 -0.8912 1.348E+00
  4.500E+06 4.500E+06 2.181E+00 4.264E+01 5.480E+01 1.620E+00 9.906E+01 1.012E+02 1.995E+05 -0.9056 1.348E+00
  5.000E+06 5.000E+06 2.191E+00 4.756E+01 6.109E+01 1.808E+00 1.105E+02 1.127E+02 2.042E+05 -0.9185 1.348E+00
  5.500E+06 5.500E+06 2.199E+00 5.244E+01 6.732E+01 2.000E+00 1.218E+02 1.240E+02 2.085E+05 -0.9302 1.348E+00
  6.000E+06 6.000E+06 2.207E+00 5.733E+01 7.357E+01 2.193E+00 1.331E+02 1.353E+02 2.123E+05 -0.9408 1.348E+00
  7.000E+06 7.000E+06 2.221E+00 6.713E+01 8.608E+01 2.581E+00 1.558E+02 1.580E+02 2.191E+05 -0.9597 1.348E+00
  8.000E+06 8.000E+06 2.233E+00 7.697E+01 9.863E+01 2.973E+00 1.786E+02 1.808E+02 2.251E+05 -0.9760 1.348E+00
  9.000E+06 9.000E+06 2.243E+00 8.683E+01 1.112E+02 3.367E+00 2.014E+02 2.036E+02 2.303E+05 -0.9904 1.348E+00
  1.000E+07 1.000E+07 2.253E+00 9.672E+01 1.238E+02 3.763E+00 2.243E+02 2.265E+02 2.349E+05 -1.0033 1.348E+00
  1.200E+07 1.200E+07 2.270E+00 1.164E+02 1.489E+02 4.569E+00 2.699E+02 2.721E+02 2.430E+05 -1.0256 1.348E+00
  1.400E+07 1.400E+07 2.284E+00 1.361E+02 1.740E+02 5.384E+00 3.156E+02 3.178E+02 2.498E+05 -1.0445 1.348E+00
  1.700E+07 1.700E+07 2.302E+00 1.658E+02 2.118E+02 6.618E+00 3.843E+02 3.866E+02 2.583E+05 -1.0683 1.348E+00
  2.000E+07 2.000E+07 2.317E+00 1.955E+02 2.497E+02 7.866E+00 4.531E+02 4.555E+02 2.654E+05 -1.0881 1.348E+00
  2.500E+07 2.500E+07 2.339E+00 2.450E+02 3.126E+02 9.994E+00 5.676E+02 5.700E+02 2.752E+05 -1.1155 1.348E+00
  3.000E+07 3.000E+07 2.356E+00 2.946E+02 3.756E+02 1.215E+01 6.823E+02 6.847E+02 2.832E+05 -1.1378 1.348E+00
  3.500E+07 3.500E+07 2.371E+00 3.442E+02 4.387E+02 1.433E+01 7.972E+02 7.996E+02 2.900E+05 -1.1566 1.348E+00
  4.000E+07 4.000E+07 2.384E+00 3.939E+02 5.018E+02 1.654E+01 9.123E+02 9.147E+02 2.958E+05 -1.1730 1.348E+00
  4.500E+07 4.500E+07 2.395E+00 4.437E+02 5.650E+02 1.876E+01 1.027E+03 1.030E+03 3.010E+05 -1.1874 1.348E+00
  5.000E+07 5.000E+07 2.406E+00 4.936E+02 6.282E+02 2.100E+01 1.143E+03 1.145E+03 3.056E+05 -1.2003 1.348E+00
  5.500E+07 5.500E+07 2.415E+00 5.431E+02 6.913E+02 2.327E+01 1.258E+03 1.260E+03 3.097E+05 -1.2119 1.348E+00
  6.000E+07 6.000E+07 2.424E+00 5.928E+02 7.544E+02 2.555E+01 1.373E+03 1.375E+03 3.135E+05 -1.2226 1.348E+00
  7.000E+07 7.000E+07 2.439E+00 6.920E+02 8.806E+02 3.017E+01 1.603E+03 1.605E+03 3.203E+05 -1.2414 1.348E+00
  8.000E+07 8.000E+07 2.453E+00 7.914E+02 1.007E+03 3.483E+01 1.833E+03 1.836E+03 3.261E+05 -1.2578 1.348E+00
  9.000E+07 9.000E+07 2.465E+00 8.908E+02 1.133E+03 3.953E+01 2.064E+03 2.066E+03 3.312E+05 -1.2722 1.348E+00
  1.000E+08 1.000E+08 2.475E+00 9.902E+02 1.260E+03 4.427E+01 2.294E+03 2.297E+03 3.358E+05 -1.2851 1.348E+00
  1.200E+08 1.200E+08 2.494E+00 1.188E+03 1.512E+03 5.312E+01 2.753E+03 2.755E+03 3.437E+05 -1.3074 1.348E+00
  1.400E+08 1.400E+08 2.510E+00 1.386E+03 1.764E+03 6.198E+01 3.212E+03 3.214E+03 3.505E+05 -1.3263 1.348E+00
  1.700E+08 1.700E+08 2.530E+00 1.683E+03 2.141E+03 7.526E+01 3.900E+03 3.903E+03 3.589E+05 -1.3500 1.348E+00
  2.000E+08 2.000E+08 2.547E+00 1.980E+03 2.519E+03 8.854E+01 4.588E+03 4.591E+03 3.660E+05 -1.3699 1.348E+00
  2.500E+08 2.500E+08 2.571E+00 2.476E+03 3.149E+03 1.107E+02 5.735E+03 5.738E+03 3.757E+05 -1.3972 1.348E+00
  3.000E+08 3.000E+08 2.590E+00 2.971E+03 3.779E+03 1.328E+02 6.882E+03 6.885E+03 3.837E+05 -1.4195 1.348E+00
  3.500E+08 3.500E+08 2.607E+00 3.466E+03 4.409E+03 1.549E+02 8.029E+03 8.032E+03 3.904E+05 -1.4384 1.348E+00
  4.000E+08 4.000E+08 2.621E+00 3.961E+03 5.039E+03 1.771E+02 9.177E+03 9.179E+03 3.962E+05 -1.4547 1.348E+00
  4.500E+08 4.500E+08 2.634E+00 4.456E+03 5.669E+03 1.992E+02 1.032E+04 1.033E+04 4.013E+05 -1.4691 1.348E+00
  5.000E+08 5.000E+08 2.646E+00 4.951E+03 6.298E+03 2.214E+02 1.147E+04 1.147E+04 4.059E+05 -1.4820 1.348E+00
  5.500E+08 5.500E+08 2.656E+00 5.446E+03 6.928E+03 2.435E+02 1.262E+04 1.262E+04 4.101E+05 -1.4937 1.348E+00
  6.000E+08 6.000E+08 2.666E+00 5.941E+03 7.558E+03 2.656E+02 1.376E+04 1.377E+04 4.139E+05 -1.5044 1.348E+00
  7.000E+08 7.000E+08 2.683E+00 6.931E+03 8.818E+03 3.099E+02 1.606E+04 1.606E+04 4.206E+05 -1.5232 1.348E+00
  8.000E+08 8.000E+08 2.698E+00 7.922E+03 1.008E+04 3.542E+02 1.835E+04 1.836E+04 4.264E+05 -1.5396 1.348E+00
  9.000E+08 9.000E+08 2.711E+00 8.912E+03 1.134E+04 3.984E+02 2.065E+04 2.065E+04 4.315E+05 -1.5540 1.348E+00
  1.000E+09 1.000E+09 2.723E+00 9.902E+03 1.260E+04 4.427E+02 2.294E+04 2.294E+04 4.361E+05 -1.5669 1.348E+00
